3.856997e+02,0.000000e+00
4.011277e+02,3.941059e-02
4.165557e+02,5.773244e-02
4.319837e+02,6.859571e-02
4.474117e+02,8.298510e-02
4.628397e+02,9.121798e-02
4.782676e+02,9.858365e-02
4.936956e+02,1.047519e-01
5.091236e+02,1.136514e-01
5.245516e+02,1.181356e-01
5.399796e+02,1.183687e-01
5.554076e+02,1.164034e-01
5.708356e+02,1.156045e-01
5.862636e+02,1.146864e-01
6.016916e+02,1.119347e-01
6.171196e+02,1.049046e-01
6.325475e+02,9.955148e-02
6.479756e+02,9.320397e-02
6.634036e+02,8.518963e-02
6.788315e+02,7.538355e-02
6.942595e+02,6.927367e-02
7.096875e+02,6.294701e-02
7.251155e+02,5.798627e-02
7.405435e+02,5.382102e-02
7.559715e+02,5.199165e-02
7.713995e+02,5.263690e-02
7.868275e+02,5.107609e-02
8.022555e+02,4.317312e-02
8.176835e+02,3.689094e-02
8.331115e+02,2.649835e-02
8.485394e+02,2.264350e-02
8.639674e+02,1.928402e-02
8.793954e+02,1.090608e-02
8.948234e+02,1.306051e-03
9.102514e+02,-0.000000e+00
9.256794e+02,2.101700e-03
9.411074e+02,6.434751e-03
9.565354e+02,1.186801e-02
9.719634e+02,2.157128e-02
9.873914e+02,3.555705e-02
1.002819e+03,5.935371e-02
1.018247e+03,9.377372e-02
1.033675e+03,1.176556e-01
1.049103e+03,1.067691e-01
1.064531e+03,9.693300e-02
1.079959e+03,1.032998e-01
1.095387e+03,1.084154e-01
1.110815e+03,1.228451e-01
1.126243e+03,1.506870e-01
1.141671e+03,1.690729e-01
1.157099e+03,1.771738e-01
1.172527e+03,1.853586e-01
1.187955e+03,2.059859e-01
1.203383e+03,2.337932e-01
1.218811e+03,2.508052e-01
1.234239e+03,2.513104e-01
1.249667e+03,2.565771e-01
1.265095e+03,2.707939e-01
1.280523e+03,2.600917e-01
1.295951e+03,2.216924e-01
1.311379e+03,1.922887e-01
1.326807e+03,1.793971e-01
1.342235e+03,1.815217e-01
1.357663e+03,2.127606e-01
1.373091e+03,3.128945e-01
1.388519e+03,5.373335e-01
1.403947e+03,6.938785e-01
1.419375e+03,4.840715e-01
1.434803e+03,3.240416e-01
1.450231e+03,2.849358e-01
1.465659e+03,2.490568e-01
1.481087e+03,2.001781e-01
1.496515e+03,1.931317e-01
1.511943e+03,1.969329e-01
1.527371e+03,1.379309e-01
1.542799e+03,9.617522e-02
1.558227e+03,1.266609e-01
1.573655e+03,2.078409e-01
1.589083e+03,2.922094e-01
1.604511e+03,3.603394e-01
1.619939e+03,4.098600e-01
1.635367e+03,4.276786e-01
1.650795e+03,4.174108e-01
1.666223e+03,4.029709e-01
1.681651e+03,3.801472e-01
1.697079e+03,3.590545e-01
1.712507e+03,3.216409e-01
1.727935e+03,2.697904e-01
1.743363e+03,1.943207e-01
1.758791e+03,1.322431e-01
1.774219e+03,8.560818e-02
1.789647e+03,4.743055e-02
1.805075e+03,2.035893e-02
1.820503e+03,7.302900e-03
1.835931e+03,1.493331e-03
1.851359e+03,1.882753e-04
1.866787e+03,-0.000000e+00
1.882215e+03,1.320940e-03
1.897643e+03,2.647478e-03
1.913071e+03,4.857912e-03
1.928499e+03,6.963816e-03
1.943927e+03,9.228877e-03
1.959355e+03,1.120770e-02
1.974783e+03,1.331599e-02
1.990211e+03,1.520540e-02
2.005639e+03,1.730162e-02
2.021067e+03,1.915148e-02
2.036495e+03,2.112402e-02
2.051923e+03,2.253359e-02
2.067351e+03,2.345365e-02
2.082779e+03,2.364570e-02
2.098207e+03,2.401746e-02
2.113635e+03,2.449642e-02
2.129062e+03,2.531082e-02
2.144491e+03,2.608508e-02
2.159919e+03,2.722901e-02
2.175347e+03,2.806753e-02
2.190775e+03,2.880736e-02
2.206203e+03,2.972400e-02
2.221631e+03,3.107862e-02
2.237059e+03,3.256710e-02
2.252487e+03,3.454858e-02
2.267915e+03,3.678256e-02
2.283343e+03,3.916097e-02
2.298771e+03,4.099094e-02
2.314199e+03,4.254283e-02
2.329626e+03,4.528375e-02
2.345055e+03,4.852540e-02
2.360482e+03,5.387533e-02
2.375911e+03,6.092009e-02
2.391338e+03,6.311197e-02
2.406767e+03,6.641196e-02
2.422194e+03,7.083175e-02
2.437623e+03,7.562578e-02
2.453051e+03,8.051343e-02
2.468479e+03,8.550876e-02
2.483906e+03,9.025086e-02
2.499334e+03,9.490623e-02
2.514762e+03,9.887104e-02
2.530190e+03,1.023801e-01
2.545618e+03,1.054442e-01
2.561046e+03,1.085548e-01
2.576474e+03,1.114756e-01
2.591902e+03,1.143098e-01
2.607330e+03,1.164670e-01
2.622758e+03,1.182530e-01
2.638186e+03,1.193252e-01
2.653614e+03,1.199057e-01
2.669042e+03,1.203157e-01
2.684470e+03,1.218448e-01
2.699898e+03,1.247963e-01
2.715326e+03,1.294412e-01
2.730754e+03,1.350689e-01
2.746182e+03,1.422669e-01
2.761610e+03,1.514647e-01
2.777038e+03,1.618079e-01
2.792466e+03,1.707801e-01
2.807894e+03,1.800886e-01
2.823322e+03,1.941303e-01
2.838750e+03,2.128800e-01
2.854178e+03,2.288444e-01
2.869606e+03,2.425633e-01
2.885034e+03,2.561263e-01
2.900462e+03,2.765003e-01
2.915890e+03,3.063730e-01
2.931318e+03,3.388349e-01
2.946746e+03,3.617946e-01
2.962174e+03,3.816229e-01
2.977602e+03,4.022219e-01
2.993030e+03,4.270313e-01
3.008458e+03,4.521123e-01
3.023886e+03,4.671311e-01
3.039314e+03,4.812525e-01
3.054742e+03,5.189116e-01
3.070170e+03,5.879568e-01
3.085598e+03,6.889616e-01
3.101026e+03,8.035429e-01
3.116454e+03,8.987884e-01
3.131882e+03,9.390143e-01
3.147310e+03,9.479935e-01
3.162738e+03,9.405917e-01
3.178166e+03,9.296104e-01
3.193594e+03,9.058926e-01
3.209022e+03,8.775044e-01
3.224450e+03,8.365713e-01
3.239878e+03,7.950131e-01
3.255306e+03,7.516272e-01
3.270734e+03,7.155941e-01
3.286162e+03,6.842983e-01
3.301590e+03,6.682410e-01
3.317018e+03,6.631818e-01
3.332446e+03,6.711526e-01
3.347874e+03,6.814933e-01
3.363302e+03,6.956211e-01
3.378730e+03,7.033148e-01
3.394158e+03,7.125459e-01
3.409586e+03,7.173632e-01
3.425014e+03,7.252923e-01
3.440442e+03,7.247390e-01
3.455870e+03,7.219851e-01
3.471298e+03,7.062474e-01
3.486726e+03,6.862859e-01
3.502154e+03,6.500671e-01
3.517582e+03,6.121751e-01
3.533010e+03,5.671114e-01
3.548438e+03,5.279976e-01
3.563866e+03,4.825522e-01
3.579294e+03,4.421186e-01
3.594722e+03,3.968727e-01
3.610150e+03,3.531259e-01
3.625578e+03,2.970941e-01
3.641006e+03,2.439623e-01
3.656434e+03,1.880014e-01
3.671862e+03,1.431418e-01
3.687290e+03,1.057556e-01
3.702718e+03,8.532418e-02
3.718146e+03,7.081807e-02
3.733574e+03,6.253148e-02
3.749002e+03,5.569362e-02
3.764430e+03,4.970563e-02
3.779858e+03,4.314531e-02
3.795286e+03,3.881468e-02
3.810714e+03,3.494406e-02
3.826142e+03,3.191805e-02
3.841570e+03,2.852154e-02
3.856998e+03,2.631198e-02
3.872426e+03,2.346208e-02
3.887854e+03,2.076400e-02
3.903282e+03,1.846327e-02
3.918710e+03,1.575742e-02
3.934138e+03,1.208961e-02
3.949566e+03,9.318002e-03
3.964994e+03,6.276624e-03
3.980422e+03,3.255597e-03
3.995850e+03,-0.000000e+00
4.011278e+03,0.000000e+00
